Time,Force
0,-0.00152663148867832
0.00075,-0.000895752724939247
0.0015,-0.000264938005491433
0.00225,0.000365899334791031
0.003,0.000996759293456217
0.00375,0.00169754254711774
0.0045,0.00225834380238044
0.00525,0.00295916277016195
0.006,0.0035197886710775
0.00675,0.00408053168460543
0.0075,0.00471107050041997
0.00825,0.00534161627530227
0.009,0.00597216900849462
0.00975,0.0065326161321877
0.0105,0.00709295421144673
0.01125,0.00772329469483635
0.012,0.00828352288139156
0.01275,0.00877363710548418
0.0135,0.00940375141312122
0.01425,0.00989375074846477
0.015,0.0104537499888846
0.01575,0.0110136340818362
0.0165,0.0115034039713485
0.01725,0.0120631749003286
0.018,0.0125528338760511
0.01875,0.0130424953889746
0.0195,0.0135321594388815
0.02025,0.0139516056485695
0.021,0.0145111674005871
0.02175,0.0149306262542748
0.0225,0.0154900919671697
0.02325,0.015979460301383
0.024,0.0164689415446956
0.02475,0.0169583284085023
0.0255,0.0174476259356915
0.02625,0.0179370346881857
0.027,0.0184263577440091
0.02775,0.0189156945428554
0.0285,0.0194750450234671
0.02925,0.0199644093074575
0.03,0.0205237872758829
0.03075,0.0210830932708039
0.0315,0.0215724172575321
0.03225,0.0220616782215427
0.033,0.0226910402283803
0.03375,0.0231804202604718
0.0345,0.0237397442241166
0.03525,0.0242291623569008
0.036,0.0247885291806044
0.03675,0.0254179186603148
0.0375,0.0259073950537575
0.03825,0.02639682744288
0.039,0.0269562824838437
0.03975,0.0275157602040105
0.0405,0.028075206507987
0.04125,0.0286347320976482
0.042,0.029264231564316
0.04275,0.0298937590191889
0.0435,0.0304533144725039
0.04425,0.0310828577843419
0.045,0.0316424719904651
0.04575,0.0322720799244974
0.0465,0.0329017217031113
0.04725,0.0335314254088587
0.048,0.034161131790712
0.04875,0.0347908720064261
0.0495,0.0354906651909814
0.05025,0.0361904699880561
0.051,0.0368203218827595
0.05175,0.0374502017282985
0.0525,0.0381501095212439
0.05325,0.0388500504280498
0.054,0.0395500113144281
0.05475,0.0402500001396777
0.0555,0.0409500089390868
0.05625,0.0417200357547642
0.057,0.0423500738812066
0.05775,0.0430501342098472
0.0585,0.0437502016558583
0.05925,0.044380270354375
0.06,0.04508036320438
0.06075,0.0457804536731904
0.0615,0.0464805367344245
0.06225,0.0471806267702152
0.063,0.0477407237854971
0.06375,0.048440806407844
0.0645,0.0490008934981856
0.06525,0.0496309617324991
0.066,0.0502610324747033
0.06675,0.0508210810206816
0.0675,0.0513811306802858
0.06825,0.0519411559092259
0.069,0.0525011558723465
0.06975,0.0530611305720724
0.0705,0.0535511305405106
0.07125,0.053971080826693
0.072,0.0545310322235598
0.07275,0.0549509614410515
0.0735,0.0553708931739721
0.07425,0.0557908060702333
0.075,0.056210723436308
0.07575,0.0567006264303549
0.0765,0.0570505364112917
0.07725,0.0574004376046561
0.078,0.0577503350343817
0.07875,0.0581002580034273
0.0795,0.0584501709290941
0.08025,0.0587301093928821
0.081,0.0590800558115839
0.08175,0.0594300168826667
0.0825,0.0597100012557128
0.08325,0.0599900050227831
0.084,0.0602700357169916
0.08475,0.06048008719864
0.0855,0.0607601709066113
0.08625,0.0609702825157132
0.087,0.061250422022911
0.08775,0.0614606077057311
0.0885,0.061740805797133
0.08925,0.0619510559220066
0.09,0.0621613398009735
0.09075,0.0623716574328292
0.0915,0.062581975475583
0.09225,0.0627923575409861
0.093,0.0630727733446462
0.09375,0.0632132229185217
0.0945,0.0634936608779507
0.09525,0.0637041748629974
0.096,0.0639146713994282
0.09675,0.0641251958217398
0.0975,0.0643357481289336
0.09825,0.0644763283452277
0.099,0.0647568743236487
0.09975,0.0648975075205016
0.1005,0.0651781011693719
0.10125,0.0654587173947752
0.102,0.0656692841235074
0.10275,0.0659498686521359
0.1035,0.0661604710562741
0.10425,0.0663710912982785
0.105,0.0666517293307756
0.10575,0.0669323022120177
0.1065,0.06721288874248
0.10725,0.0674934889215212
0.108,0.0678440141355957
0.10875,0.0681946395980065
0.1095,0.0684751865834976
0.11025,0.0687556500197245
0.111,0.0691062153144212
0.11175,0.0693866940567961
0.1125,0.0698071796192445
0.11325,0.0700875731283745
0.114,0.0705079709438083
0.11475,0.0708583732753371
0.1155,0.0712087800526728
0.11625,0.0715590879580197
0.117,0.071909294487606
0.11775,0.0722596065531667
0.1185,0.0726797107897015
0.11925,0.0730299206397572
0.12,0.0734500257007031
0.12075,0.0738001311156378
0.1215,0.0741501307147169
0.12225,0.0745700244244935
0.123,0.0749200240257136
0.12375,0.0753399180214992
0.1245,0.0757597073355565
0.12525,0.0761094978524823
0.126,0.0765291858489531
0.12675,0.0768788764444805
0.1275,0.0772985694872941
0.12825,0.0777181642811686
0.129,0.0780677636252164
0.12975,0.07841726918553
0.1305,0.0788367816673224
0.13125,0.0791862060164772
0.132,0.0795356404229297
0.13275,0.0798850848860777
0.1335,0.0803044494599142
0.13425,0.0807238277210826
0.135,0.0810732197212577
0.13575,0.0814925416018131
0.1365,0.0818418813985466
0.13725,0.0821912390577745
0.138,0.0826105377586034
0.13875,0.082959859105064
0.1395,0.0833792030144243
0.14025,0.0837285695611201
0.141,0.084217958641209
0.14175,0.0846373703554121
0.1425,0.0849867432534629
0.14325,0.085336144040577
0.144,0.0858256285367465
0.14475,0.0861750823139473
0.1455,0.0866645639387775
0.14625,0.0870141212685688
0.147,0.0875036558802178
0.14775,0.0879232183905143
0.1485,0.0883428484806359
0.14925,0.0887624639626083
0.15,0.089182141725635
0.15075,0.0896018420685091
0.1515,0.090091564983395
0.15225,0.090441310487353
0.153,0.0909310785557943
0.15375,0.0914208913435977
0.1545,0.0918407219710798
0.15525,0.0923305704303995
0.156,0.0927504367253529
0.15675,0.0931703208517803
0.1575,0.0936602340871634
0.15825,0.0940801609746011
0.159,0.0945701091700452
0.15975,0.0949900614066834
0.1605,0.0954800313290693
0.16125,0.0959700139236425
0.162,0.096390002227727
0.16275,0.0968800001392273
0.1635,0.0973700050121112
0.16425,0.0977900139222065
0.165,0.0982800272867529
0.16575,0.0987700451054296
0.1665,0.0992600673778365
0.16725,0.0998200870037336
0.168,0.100240109134875
0.16875,0.100730133770023
0.1695,0.10122015158324
0.17025,0.101710170508999
0.171,0.102200190547203
0.17175,0.102690200980642
0.1725,0.103250211691024
0.17325,0.103740222679952
0.174,0.104230233946616
0.17475,0.104790233939171
0.1755,0.105280233932661
0.17625,0.105770233926147
0.177,0.106330222647191
0.17775,0.106890211647262
0.1785,0.107450190490384
0.17925,0.107940180327741
0.18,0.108570151519969
0.18075,0.109130133706211
0.1815,0.109690109076308
0.18225,0.110180086952545
0.183,0.110810061351521
0.18375,0.111300040204301
0.1845,0.111930023509634
0.18525,0.112490008902776
0.186,0.113050001251915
0.18675,0.113680000556383
0.1875,0.114240008901886
0.18825,0.114870027261055
0.189,0.115360055633263
0.18975,0.115920101388404
0.1905,0.116550160769274
0.19125,0.117040233776503
0.192,0.11767033389489
0.19275,0.11830043609201
0.1935,0.118790569573724
0.19425,0.119420741003377
0.195,0.119910912288969
0.19575,0.12040112625135
0.1965,0.12103133532484
0.19725,0.121521591806424
0.198,0.122081870789271
0.19875,0.122572207180766
0.1995,0.123132533672892
0.20025,0.123692882665086
0.201,0.124183296845277
0.20175,0.124603693362867
0.2025,0.125164112348003
0.20325,0.125584604318803
0.204,0.126075070809151
0.20475,0.126565559790715
0.2055,0.127056071261588
0.20625,0.127546605219909
0.207,0.12789716172068
0.20775,0.128387675193103
0.2085,0.128808274140371
0.20925,0.129158825426129
0.21,0.129579394441036
0.21075,0.129999981216675
0.2115,0.130420509182421
0.21225,0.130771050785043
0.213,0.13112160598412
0.21375,0.131542174730492
0.2145,0.131822673101608
0.21525,0.132173181409035
0.216,0.132523699700506
0.21675,0.132804139245695
0.2175,0.133154585666173
0.21825,0.133434947791652
0.219,0.133785406684521
0.21975,0.134135778724743
0.2205,0.134416060646864
0.22125,0.134696345060776
0.222,0.134976631966372
0.22275,0.135256921363522
0.2235,0.135537115588507
0.22425,0.135817212978824
0.225,0.136097408860049
0.22575,0.136377507076103
0.2265,0.136657605566877
0.22725,0.136937605287377
0.228,0.137147605077753
0.22875,0.137357604868137
0.2295,0.137637505825434
0.23025,0.137847407132765
0.231,0.138127210724501
0.23175,0.138337112871494
0.2325,0.13861691814015
0.23325,0.138896628270148
0.234,0.139106340974305
0.23475,0.139316056185398
0.2355,0.139595773840738
0.23625,0.139805401426627
0.237,0.140085033406155
0.23775,0.140224669958147
0.2385,0.140504221821435
0.23925,0.140783780643081
0.24,0.140993346475702
0.24075,0.141202834685053
0.2415,0.14148233285684
0.24225,0.141691841090528
0.243,0.141971359289753
0.24375,0.142180809916895
0.2445,0.1424602741256
0.24525,0.142739751960296
0.246,0.14301924342033
0.24675,0.14329867893473
0.2475,0.143578199588656
0.24825,0.143857668463547
0.249,0.144137155128893
0.24975,0.144416598904598
0.2505,0.144766123346607
0.25125,0.145045609646355
0.252,0.145465171870647
0.25275,0.145814700673365
0.2535,0.146164251986887
0.25425,0.146443825825077
0.255,0.146863422141055
0.25575,0.147213082212159
0.2565,0.147702721034254
0.25725,0.14805238238486
0.258,0.148472066229984
0.25875,0.148961804083548
0.2595,0.149381530436127
0.26025,0.149801306079904
0.261,0.150291099497483
0.26175,0.150780888345987
0.2625,0.151270739666306
0.26325,0.151760586414604
0.264,0.152320450935057
0.26475,0.152880346968873
0.2655,0.153370256611059
0.26625,0.153930179857967
0.267,0.154490124897402
0.26775,0.154980073409879
0.2685,0.155610044960209
0.26925,0.156100019981765
0.27,0.156730006799105
0.27075,0.157220000555012
0.2715,0.157780000554993
0.27225,0.158410006798462
0.273,0.158900013874024
0.27375,0.159390023446448
0.2745,0.16002003551525
0.27525,0.160510050080658
0.276,0.161000061177168
0.27675,0.161490073382823
0.2775,0.162050079900125
0.27825,0.162610086694436
0.279,0.163030086692377
0.27975,0.16352009376387
0.2805,0.163940086687903
0.28125,0.164360086685844
0.282,0.16485007988746
0.28275,0.16527007336712
0.2835,0.165760061160689
0.28425,0.166180050064587
0.285,0.166530040078615
0.28575,0.167020027180588
0.2865,0.167370016779522
0.28725,0.167720008874937
0.288,0.168140002218685
0.28875,0.168490000000003
0.2895,0.168910002218586
0.29025,0.169190011231414
0.291,0.169610027176606
0.29175,0.169960050053873
0.2925,0.170310079862775
0.29325,0.170590124783611
0.294,0.170940169840992
0.29475,0.171220233059747
0.2955,0.171570319428322
0.29625,0.17185040427006
0.297,0.172200515863891
0.29775,0.172480641041876
0.2985,0.17276077980178
0.29925,0.173110932139252
0.3,0.173321122878973
0.30075,0.173531304326253
0.3015,0.173881528314597
0.30225,0.174091770051438
0.303,0.174371996110641
0.30375,0.174652271094332
0.3045,0.174862563822103
0.30525,0.175142914333112
0.306,0.175353244747329
0.30675,0.1755635928957
0.3075,0.175843958761908
0.30825,0.176054391580155
0.309,0.176264795142664
0.30975,0.176475216436674
0.3105,0.17675571157219
0.31125,0.17696617054239
0.312,0.177176647242062
0.31275,0.17738714167057
0.3135,0.177597653827287
0.31425,0.177808183711576
0.315,0.17808873128823
0.31575,0.178229225010071
0.3165,0.178509805817914
0.31725,0.178720328581475
0.318,0.178930864913751
0.31875,0.179211414769042
0.3195,0.17935197828246
0.32025,0.179562472032498
0.321,0.179842975696926
0.32175,0.179983489429507
0.3225,0.180263925026685
0.32325,0.180474456973713
0.324,0.180684907845057
0.32475,0.180965273426114
0.3255,0.18110573680843
0.32625,0.181316018045715
0.327,0.181526396963014
0.32775,0.18173668400534
0.3285,0.181946973534897
0.32925,0.182157265551621
0.33,0.182367461542022
0.33075,0.182647658566295
0.3315,0.182787757491749
0.33225,0.182997856622051
0.333,0.183207956027093
0.33375,0.183417955813863
0.3345,0.183627955600625
0.33525,0.183837855773844
0.336,0.184047756226512
0.33675,0.184327656888739
0.3375,0.184467459468494
0.33825,0.18474726302302
0.339,0.18488706782715
0.33975,0.185096777117164
0.3405,0.185306488907674
0.34125,0.185516203198594
0.342,0.185725826205157
0.34275,0.186005453592392
0.3435,0.186145085543658
0.34425,0.186424631637682
0.345,0.186634184728308
0.34575,0.186773744809991
0.3465,0.187053311719282
0.34725,0.18726288561913
0.348,0.187542383434731
0.34875,0.187681891333307
0.3495,0.18796140912231
0.35025,0.188240936899297
0.351,0.18845047470524
0.35175,0.188659948116477
0.3525,0.188939507514291
0.35325,0.189149006159116
0.354,0.189428518355249
0.35475,0.189708044139676
0.3555,0.18998758351175
0.35625,0.190267136470833
0.357,0.190546703016276
0.35775,0.190826283147433
0.3585,0.191035876886914
0.35925,0.191315429207066
0.36,0.191595052029651
0.36075,0.191874688435366
0.3615,0.192154289540323
0.36225,0.192433955049824
0.363,0.192783634126091
0.36375,0.193063284010492
0.3645,0.1933429922019
0.36525,0.193622713972398
0.366,0.193972449311656
0.36675,0.194182198248106
0.3675,0.194531960744252
0.36825,0.194811767978768
0.369,0.195161555690868
0.36975,0.195511384531957
0.3705,0.195791223353082
0.37125,0.196001072151867
0.372,0.196350930915107
0.37275,0.196630799655063
0.3735,0.196980697884595
0.37425,0.19726058490692
0.375,0.197610515123222
0.37575,0.197960434129121
0.3765,0.19824036006122
0.37725,0.198590305789893
0.378,0.198870255951365
0.37875,0.19915022147956
0.3795,0.199430189500453
0.38025,0.199710160013918
0.381,0.200060133019325
0.38175,0.200340116407373
0.3825,0.200690100902846
0.38325,0.201040086506214
0.384,0.201320079722865
0.38475,0.201530073216831
0.3855,0.201880073215384
0.38625,0.202160073214226
0.387,0.202440073213073
0.38775,0.202720079716564
0.3885,0.203070086496298
0.38925,0.203350093552918
0.39,0.203630108497522
0.39075,0.203840124549252
0.3915,0.204120150702211
0.39225,0.204400179345244
0.393,0.204680210478243
0.39375,0.204890255864337
0.3945,0.205170305676248
0.39525,0.205450359914596
0.396,0.205590418582492
0.39675,0.205870498139878
0.3975,0.206080584615557
0.39825,0.206220697520406
0.399,0.206430820382744
0.39975,0.206640953204535
0.4005,0.206851095985416
0.40125,0.206991248729976
0.402,0.207131439521764
0.40275,0.20734164386343
0.4035,0.207411861774153
0.40425,0.207552093234116
0.405,0.207692374360923
0.40575,0.207692634888946
0.4065,0.207832949214874
0.40725,0.207903281258344
0.408,0.207973586319812
0.40875,0.208043951563368
0.4095,0.208044334530562
0.41025,0.208044735207216
0.411,0.208045153593323
0.41175,0.207975589710979
0.4125,0.207976043517786
0.41325,0.207836575270846
0.414,0.20783700431535
0.41475,0.207767511284417
0.4155,0.207628035999062
0.41625,0.207488578432011
0.417,0.207349138583676
0.41775,0.207139716492891
0.4185,0.206930236718046
0.41925,0.206720847861697
0.42,0.206511397169685
0.42075,0.206232041597672
0.4215,0.205952620042787
0.42225,0.205673212066803
0.423,0.205323817724994
0.42375,0.204974347713693
0.4245,0.204624978603754
0.42525,0.204205530285739
0.426,0.203786186477172
0.42675,0.203366759803067
0.4275,0.202947245275287
0.42825,0.202457836992579
0.429,0.201968337812041
0.42975,0.201478947861957
0.4305,0.200919360372215
0.43125,0.200289882196843
0.432,0.199730304730635
0.43275,0.199100839082196
0.4335,0.198471271725703
0.43425,0.197841599327869
0.435,0.197142039869037
0.43575,0.196442373426361
0.4365,0.195672597584415
0.43725,0.194902822869641
0.438,0.194133049282187
0.43875,0.193293276914279
0.4395,0.192453391709131
0.44025,0.191543506884865
0.441,0.190703622255955
0.44175,0.189793623471133
0.4425,0.188813624779925
0.44325,0.187763511908449
0.444,0.186783399208008
0.44475,0.185663173500168
0.4455,0.1846130616901
0.44625,0.183492725233892
0.447,0.182372502766704
0.44775,0.1812521703894
0.4485,0.179991730747501
0.44925,0.17880129539331
0.45,0.177470864580715
0.45075,0.176140331828664
0.4515,0.174809910859011
0.45225,0.173409286954232
0.453,0.172008774830895
0.45375,0.170608169038776
0.4545,0.169067474685813
0.45525,0.167526890456404
0.456,0.165986221111462
0.45675,0.164305472576607
0.4575,0.162694832173828
0.45825,0.160944116716982
0.459,0.159263418823559
0.45975,0.157442738658393
0.4605,0.155691994334293
0.46125,0.153871272389524
0.462,0.151980572822416
0.46275,0.150019895631845
0.4635,0.148129240743905
0.46425,0.146098608275997
0.465,0.144067931644903
0.46575,0.141967346404429
0.4665,0.139866783524761
0.46725,0.137766184256436
0.468,0.135525668660974
0.46875,0.133355121930149
0.4695,0.13111460287466
0.47025,0.128734159462496
0.471,0.126493738418315
0.47175,0.124113339813723
0.4725,0.121802963613002
0.47325,0.119422648089237
0.474,0.116972314271257
0.47475,0.114522002892957
0.4755,0.112001744991964
0.47625,0.109481476025919
0.477,0.106961255824353
0.47775,0.104371077732372
0.4785,0.101850890815431
0.47925,0.0992607418522018
0.48,0.0966706064897443
0.48075,0.0941504847321373
0.4815,0.0915603912131679
0.48225,0.0889703076956733
0.483,0.086450234183133
0.48375,0.0838601706820946
0.4845,0.0814101339170142
0.48525,0.0788901016019783
0.486,0.0764400737379117
0.48675,0.073990050327214
0.4875,0.0715400356940826
0.48825,0.0692300273318747
0.489,0.0669200200831993
0.48975,0.0646100168776864
0.4905,0.0624400168797729
0.49125,0.0602700168818593
0.492,0.0582400200931343
0.49275,0.0562100273521454
0.4935,0.0543200403347988
0.49425,0.0525000558325062
0.495,0.0506800804071406
0.49575,0.0489301094539685
0.4965,0.0473201429733999
0.49725,0.0457101911606894
0.498,0.044240258207246
0.49875,0.0427003217748689
0.4995,0.0413704072771931
0.50025,0.0401105028474719
0.501,0.0387806270704028
0.50175,0.0375907444608842
0.5025,0.0364708941365971
0.50325,0.0353510575237687
0.504,0.0343712084864911
0.50475,0.0333913973338296
0.5055,0.0324815998905303
0.50625,0.0317118161490415
0.507,0.0308720124499251
0.50775,0.0301722541736604
0.5085,0.0294725096136339
0.50925,0.0288427787603779
0.51,0.0283530615999406
0.51075,0.0277933149755039
0.5115,0.0273736232728222
0.51225,0.0269539452838141
0.513,0.0266742809752718
0.51375,0.0264646303582872
0.5145,0.02618499346906
0.51525,0.0259753156108261
0.516,0.0258357041397567
0.51675,0.0256961063747757
0.5175,0.0256965222641015
0.51825,0.0256968896446441
0.519,0.0257673309473111
0.51975,0.0258377201034282
0.5205,0.0259781868088593
0.52125,0.0261885976957343
0.522,0.0263290186735909
0.52275,0.0265395225012927
0.5235,0.026889965150686
0.52425,0.0271704943496265
0.525,0.0275209587693853
0.52575,0.0279414331888955
0.5265,0.0282919176969432
0.52725,0.0287824121500246
0.528,0.0292029166901941
0.52875,0.0296233447555827
0.5295,0.0301837796784066
0.53025,0.0306743109214175
0.531,0.0312347611598629
0.53175,0.0317951262641664
0.5325,0.0324255889622954
0.53325,0.0330559640126643
0.534,0.0336863435074608
0.53475,0.034246727512986
0.5355,0.0349471158284403
0.53625,0.0355775086536597
0.537,0.0362778059570024
0.53775,0.0369082065511211
0.5385,0.0376085096714385
0.53925,0.0383788152069492
0.54,0.0390090201527654
0.54075,0.0397093299090906
0.5415,0.0404095375364588
0.54225,0.0410397463434276
0.543,0.0418099560934676
0.54375,0.0424401671033203
0.5445,0.0432102724957412
0.54525,0.0439103782395084
0.546,0.0445404843358616
0.54675,0.0453105905395712
0.5475,0.0459406971783638
0.54825,0.0465706964352419
0.549,0.0472706956096153
0.54975,0.0479005875004873
0.5505,0.0486004795966549
0.55125,0.0492303720619036
0.552,0.0499302647332484
0.55275,0.0505600518188593
0.5535,0.0511898400364913
0.55425,0.0518195248355924
0.555,0.0524492121697923
0.55575,0.0530787994499721
0.5565,0.0537083912260505
0.55725,0.0543379874975614
0.558,0.0549674893148155
0.55875,0.0556669980778579
0.5595,0.0562264181173072
0.56025,0.0569259423083518
0.561,0.057555288265505
0.56175,0.0581147385617675
0.5625,0.0588141099448908
0.56325,0.0593734951592167
0.564,0.0600728939831008
0.56475,0.06070230657646
0.5655,0.0613317328840407
0.56625,0.0620310940392105
0.567,0.0625905497708407
0.56775,0.0632199445375053
0.5685,0.0639194295607054
0.56925,0.0645488578898634
0.57,0.065248304080418
0.57075,0.0658078342016494
0.5715,0.0665073779621883
0.57225,0.06720687336493
0.573,0.0678364465121295
0.57375,0.0684660333564685
0.5745,0.0691656338740243
0.57525,0.0697952481097514
0.576,0.0704949283080825
0.57675,0.0711245679751515
0.5775,0.0718242699754978
0.57825,0.0725239820379797
0.579,0.0731537041761526
0.57975,0.0739234363445473
0.5805,0.0745531785988818
0.58125,0.0751829714742902
0.582,0.0758827713233207
0.58275,0.0765125781680598
0.5835,0.0772824286349799
0.58425,0.0779122480515326
