Time,Force
0,-0.00194284808739481
0.00075,-0.00166225526550212
0.0015,-0.00131175368279252
0.00225,-0.00103134739078303
0.003,-0.000680936707849189
0.00375,-0.000400625785741682
0.0045,-0.000120312353573404
0.00525,0.000160003588535185
0.006,0.000440215503146879
0.00675,0.000720321715332872
0.0075,0.00100042820409707
0.00825,0.00128053496943559
0.009,0.00163053455877304
0.00975,0.00191053423025778
0.0105,0.00219042681515125
0.01125,0.00247031968345024
0.012,0.00282010651140641
0.01275,0.00316989446768834
0.0135,0.00351968355221832
0.01425,0.00379936956545257
0.015,0.00421916139077716
0.01575,0.00449885162382924
0.0165,0.00491844248638962
0.01725,0.0052680379193254
0.018,0.00568763777647308
0.01875,0.00603724220019197
0.0195,0.00645675406648449
0.02025,0.00680627301850367
0.021,0.00722579892371344
0.02175,0.00757523940993987
0.0225,0.00799468993522623
0.02325,0.00848415050543616
0.024,0.00883353411357257
0.02475,0.00925293140743799
0.0255,0.00967242569660409
0.02625,0.0100918485112506
0.027,0.0105112850653255
0.02775,0.0109307353578497
0.0285,0.0114201239362649
0.02925,0.0117696037036763
0.03,0.0122590259195299
0.03075,0.0126784661084883
0.0315,0.0131679241992089
0.03225,0.0135874002558378
0.033,0.0140768322455409
0.03375,0.0144963464040282
0.0345,0.01498582125604
0.03525,0.015405373510487
0.036,0.015894891218089
0.03675,0.0163144316291586
0.0375,0.0168040421191018
0.03825,0.0172936253577705
0.039,0.0177832739333761
0.03975,0.0182029404416978
0.0405,0.0187626248459705
0.04125,0.0191823271892444
0.042,0.0197420474303772
0.04275,0.020231817339062
0.0435,0.0207215711796516
0.04425,0.0211413704844005
0.045,0.0217011579041593
0.04575,0.0221909865889786
0.0465,0.022680828985614
0.04725,0.0231706850929192
0.048,0.0237305726634579
0.04875,0.024220454231334
0.0495,0.0247803495050947
0.05025,0.0252702706491759
0.051,0.0259001913767598
0.05175,0.0263901343374201
0.0525,0.0269500805160022
0.05325,0.0274400452889867
0.054,0.0280700201277168
0.05475,0.0285600068488218
0.0555,0.0291200001397657
0.05625,0.0296100022362128
0.057,0.030240011320436
0.05775,0.0307300236185221
0.0585,0.0312900403877836
0.05925,0.0317800616280844
0.06,0.0323400804912533
0.06075,0.0329000944624108
0.0615,0.033460109550536
0.06225,0.0340201257555317
0.063,0.0344401342757433
0.06375,0.0349301430744198
0.0645,0.0354901521514367
0.06525,0.0359801521471842
0.066,0.0365401430612855
0.06675,0.0370301342559148
0.0675,0.0375201257304331
0.06825,0.0380101095221141
0.069,0.0385000944322472
0.06975,0.0389900738953591
0.0705,0.039550061600781
0.07125,0.0399700452566326
0.072,0.0405300273765946
0.07275,0.040950013967318
0.0735,0.0415100050280726
0.07425,0.0419300001396677
0.075,0.0424200022345839
0.07575,0.0429800113122186
0.0765,0.0434000314220701
0.07725,0.0438900615855414
0.078,0.0443801018018264
0.07875,0.0448001520707014
0.0795,0.0453602234208922
0.08025,0.0457803084530872
0.081,0.0462704071634573
0.08175,0.0467605367258606
0.0825,0.0472506647451737
0.08325,0.0476708278050397
0.084,0.0481609851289011
0.08475,0.0485811816796183
0.0855,0.0490713960853167
0.08625,0.0495616283484462
0.087,0.0500518784674836
0.08775,0.0504721464495067
0.0885,0.0509624322770413
0.08925,0.0513827359669866
0.09,0.0518730574973103
0.09075,0.0522934405792164
0.0915,0.0527837541171772
0.09225,0.0532041292067242
0.093,0.0536945221255364
0.09375,0.0541149329067592
0.0945,0.0546053069415364
0.09525,0.0550957511544203
0.096,0.0555161544769145
0.09675,0.0559365714563925
0.0975,0.0563570020918597
0.09825,0.0567774463823523
0.099,0.05726790429536
0.09975,0.0576883758910579
0.1005,0.0581087909518307
0.10125,0.0585992878617786
0.102,0.0589497246845605
0.10275,0.0593701714953276
0.1035,0.0597905514530545
0.10425,0.0601410166832123
0.105,0.0606314119054374
0.10575,0.060981814175427
0.1065,0.0614022233561978
0.10725,0.0617526395431262
0.108,0.0621729773994656
0.10875,0.0625233197567571
0.1095,0.0629435793234812
0.11025,0.0632239295210246
0.111,0.0636441949215022
0.11175,0.063994462877745
0.1125,0.0644147332753481
0.11325,0.0646949149280718
0.114,0.0651150975705234
0.11475,0.0654652813809647
0.1155,0.0657453736099711
0.11625,0.0660954660533464
0.117,0.0664455587719825
0.11775,0.0667256518282328
0.1185,0.0670756515163934
0.11925,0.0673556512669266
0.12,0.0677055576560731
0.12075,0.0679854643894784
0.1215,0.0683353713435203
0.12225,0.0686152786410554
0.123,0.0689650942620978
0.12375,0.0692448200057832
0.1245,0.069524638489793
0.12525,0.0698043684327909
0.126,0.0701540122931221
0.12675,0.0703636607384994
0.1275,0.0707133135481991
0.12825,0.0709228860210986
0.129,0.0712725488963922
0.12975,0.0714820518162362
0.1305,0.0718316451444506
0.13125,0.0720411664951426
0.132,0.0723906978105887
0.13275,0.0726002392645375
0.1335,0.0729497169371091
0.13425,0.073229208329923
0.135,0.0735087134015433
0.13575,0.0737182321841034
0.1365,0.0740677645785842
0.13725,0.0742773107118094
0.138,0.0746268087063529
0.13875,0.0749063245896137
0.1395,0.0751859156254758
0.14025,0.0754654649940933
0.141,0.0758150321997902
0.14175,0.0760946172834409
0.1425,0.076374220222436
0.14325,0.0766538410159284
0.144,0.077003479649197
0.14475,0.0772831361504794
0.1455,0.0776328104924318
0.14625,0.0779125026978128
0.147,0.078262212744466
0.14775,0.0785419736820003
0.1485,0.0788917171987819
0.14925,0.0791715074203631
0.15,0.0795912843985047
0.15075,0.0798711039017586
0.1515,0.0802209370644735
0.15225,0.0805007838940675
0.153,0.0809206443803773
0.15375,0.0812705356723298
0.1545,0.081620437001817
0.15525,0.0819003345741914
0.156,0.0823202576480192
0.15675,0.0826702012094832
0.1575,0.0830901426825442
0.15825,0.0833701015760918
0.159,0.0837900674371123
0.15975,0.0841400402663961
0.1605,0.0845600235462207
0.16125,0.0849100112852447
0.162,0.0853300034830135
0.16275,0.0856800001393171
0.1635,0.0861000005572526
0.16425,0.0865200034827834
0.165,0.0869400089157074
0.16575,0.0872900139305116
0.1665,0.0877100200594644
0.16725,0.0881300273025054
0.168,0.0885500313414095
0.16875,0.0889700402553401
0.1695,0.0893900402543807
0.17025,0.0897400451285818
0.171,0.0902300451273214
0.17175,0.090580045126426
0.1725,0.0910700451251656
0.17325,0.0915600402494188
0.174,0.0919100356527525
0.17475,0.0923300313346753
0.1755,0.0927500235352652
0.17625,0.093170020053237
0.177,0.0935900112796773
0.17775,0.094010006823344
0.1785,0.0945000022279718
0.17925,0.0948500001392466
0.18,0.0953400005569627
0.18075,0.0957600034809508
0.1815,0.0961800112780148
0.18225,0.0966000235301184
0.183,0.0970900451097295
0.18375,0.0974400673848019
0.1845,0.0979301014920531
0.18525,0.0983501516079643
0.186,0.0987702010254105
0.18675,0.099260269511332
0.1875,0.099680348017685
0.18825,0.100030436544706
0.189,0.100520535086453
0.18975,0.100940662717435
0.1905,0.101430803980114
0.19125,0.10178095888311
0.192,0.102271127411375
0.19275,0.102761309570158
0.1935,0.103111505370292
0.19425,0.103531745831573
0.195,0.104021970825301
0.19575,0.104372244672628
0.1965,0.10486253630229
0.19725,0.105212806089567
0.198,0.10570313108795
0.19875,0.106123473893961
0.1995,0.106543788435594
0.20025,0.106964164605435
0.201,0.107454558549906
0.20175,0.107804917865257
0.2025,0.108295345163311
0.20325,0.108645733664472
0.204,0.109136135736474
0.20475,0.10955655144672
0.2055,0.10997698077144
0.20625,0.110467423680154
0.207,0.110887814147818
0.20775,0.111238214645779
0.2085,0.1117286944922
0.20925,0.112149045533879
0.21,0.112639475950221
0.21075,0.11305984225626
0.2115,0.113480215499716
0.21225,0.113970595637997
0.213,0.114390982753281
0.21375,0.114811297385503
0.2145,0.115301616407252
0.21525,0.115721858547269
0.216,0.116212185325199
0.21675,0.116632433280204
0.2175,0.117192683625847
0.21825,0.117612851870712
0.219,0.118103021168311
0.21975,0.118523191621364
0.2205,0.11908336307255
0.22125,0.119503449104351
0.222,0.11999353535636
0.22275,0.120483621881665
0.2235,0.120973621502869
0.22425,0.121463708299036
0.225,0.121953620745345
0.22575,0.122513620312513
0.2265,0.122933533098282
0.22725,0.123423446112844
0.228,0.123983359357213
0.22875,0.124403272990552
0.2295,0.124963101311734
0.23025,0.12538293085855
0.231,0.125942677329346
0.23175,0.126432509625987
0.2325,0.126922260343691
0.23325,0.127411931991038
0.234,0.127901688575983
0.23475,0.128391368040366
0.2355,0.128881051969802
0.23625,0.129370740363934
0.237,0.129860357206468
0.23775,0.130350055642688
0.2385,0.130839685032019
0.23925,0.131259321426816
0.24,0.131748894301439
0.24075,0.132238545984457
0.2415,0.132728137245242
0.24225,0.1331477385633
0.243,0.133637349874817
0.24375,0.134056971238921
0.2445,0.134476542188601
0.24525,0.13496618523835
0.246,0.135385781513255
0.24675,0.135805391421732
0.2475,0.136225067890806
0.24825,0.136644703117428
0.249,0.137064351974793
0.24975,0.137483967371873
0.2505,0.137903645433607
0.25125,0.138253337136306
0.252,0.138673042451352
0.25275,0.139022761403196
0.2535,0.139442493967887
0.25425,0.139792240165418
0.255,0.140211999976076
0.25575,0.140561773415836
0.2565,0.140981560468796
0.25725,0.141331388784124
0.258,0.1417512011308
0.25875,0.142031051129003
0.2595,0.142450888765427
0.26025,0.142800760434837
0.261,0.143150642107543
0.26175,0.143500551140637
0.2625,0.143850451151531
0.26325,0.144200375466153
0.264,0.144550306726436
0.26475,0.144900244931962
0.2655,0.145250200495883
0.26625,0.145530151202596
0.267,0.145880116766632
0.26775,0.146230086774909
0.2685,0.14658006719716
0.26925,0.1468600501194
0.27,0.147210035541029
0.27075,0.147560023462164
0.2715,0.147910016798026
0.27225,0.148190011244775
0.273,0.148540006802258
0.27375,0.148820003470489
0.2745,0.149170002221069
0.27525,0.149520001249327
0.276,0.149870001249306
0.27675,0.150150001249279
0.2775,0.150500001249254
0.27825,0.150780001249235
0.279,0.151200002220813
0.27975,0.151480002220774
0.2805,0.151830004996646
0.28125,0.152110006800884
0.282,0.152530011242017
0.28275,0.15281001679336
0.2835,0.153160023454725
0.28425,0.153580035528207
0.285,0.153860050099527
0.28575,0.154140067168378
0.2865,0.154560086733964
0.28725,0.15484010879736
0.288,0.155260142099297
0.28875,0.155540179841569
0.2895,0.155890222022221
0.29025,0.156240280991306
0.291,0.156660333157565
0.29175,0.156940404611436
0.2925,0.157360482996887
0.29325,0.157640568320562
0.294,0.158060660573683
0.29475,0.158340780438575
0.2955,0.158760910281903
0.29625,0.15911102611057
0.297,0.159461174260103
0.29775,0.159881332387262
0.2985,0.160161529501927
0.29925,0.160511709262561
0.3,0.160931898996721
0.30075,0.161212132990762
0.3015,0.161632344347449
0.30225,0.161982603561245
0.303,0.162402876347259
0.30375,0.162753120974659
0.3045,0.163103418994638
0.30525,0.163453730595836
0.306,0.163804055777453
0.30675,0.164154345300543
0.3075,0.164574695681185
0.30825,0.164855059677108
0.309,0.165275382427526
0.30975,0.16555577163934
0.3105,0.165976115994838
0.31125,0.166326530393915
0.312,0.166676896377541
0.31275,0.167027272331358
0.3135,0.167377658254774
0.31425,0.167728054147199
0.315,0.16807839164463
0.31575,0.168428805810665
0.3165,0.168779158532716
0.31725,0.169199518136072
0.318,0.169479884733447
0.31875,0.169830182921961
0.3195,0.170180561932577
0.32025,0.170460870121642
0.321,0.170881182649045
0.32175,0.17116141996898
0.3225,0.171511740281305
0.32325,0.171861983359308
0.324,0.172142146760249
0.32475,0.172492393980536
0.3255,0.172842560092024
0.32625,0.173122727356367
0.327,0.173472895673331
0.32775,0.173752980168075
0.3285,0.174103064885641
0.32925,0.174383149929166
0.33,0.174733149668767
0.33075,0.175083234932727
0.3315,0.175433234670657
0.33225,0.175713148939706
0.333,0.176063063436946
0.33375,0.176343063230021
0.3345,0.176692893324251
0.33525,0.176972808713598
0.336,0.177322640482072
0.33675,0.177672473365947
0.3375,0.177882307462621
0.33825,0.178162060717734
0.339,0.178511816428437
0.33975,0.178791574689154
0.3405,0.179141335407105
0.34125,0.179421098672886
0.342,0.1797707869333
0.34275,0.180050479681894
0.3435,0.180330176874527
0.34425,0.180609878510977
0.345,0.180959584553093
0.34575,0.18123922343963
0.3465,0.181518869265725
0.34725,0.181798590895667
0.348,0.182148249180583
0.34875,0.182427914438107
0.3495,0.182707586633898
0.35025,0.182987202449705
0.351,0.183336889880257
0.35175,0.183616584276534
0.3525,0.183896226728427
0.35325,0.184175936384487
0.354,0.184525597123041
0.35475,0.184735267891346
0.3555,0.185085001107572
0.35625,0.185434690142624
0.357,0.185644389198829
0.35775,0.185924146012275
0.3585,0.186203863353492
0.35925,0.186483590677373
0.36,0.186763327983444
0.36075,0.187043116688556
0.3615,0.187322872294722
0.36225,0.187602637881709
0.363,0.187882450154967
0.36375,0.188092234048304
0.3645,0.188442061560993
0.36525,0.188651863748689
0.366,0.188931706516364
0.36675,0.189141556220299
0.3675,0.189421412847283
0.36825,0.189701276403736
0.369,0.189981146889333
0.36975,0.190191048267396
0.3705,0.19047095407581
0.37125,0.190610842582573
0.372,0.190890758367706
0.37275,0.191100698116555
0.3735,0.191380621661502
0.37425,0.191520567232196
0.375,0.191800498536041
0.37575,0.192080449921654
0.3765,0.192220418898814
0.37725,0.192360374444105
0.378,0.192640346189145
0.37875,0.192780319045394
0.3795,0.192990293008696
0.38025,0.193130280405443
0.381,0.193340268078273
0.38175,0.193480256029337
0.3825,0.193690244256563
0.38325,0.193830244254636
0.384,0.194040244251735
0.38475,0.19411024425077
0.3855,0.194320256017184
0.38625,0.194390256016171
0.387,0.194600268059179
0.38775,0.19467029298088
0.3885,0.194810305855217
0.38925,0.194880332437968
0.39,0.195020360126739
0.39075,0.195160403737515
0.3915,0.195300434194384
0.39225,0.195300481961306
0.393,0.1954405322162
0.39375,0.195510603102134
0.3945,0.195650659170459
0.39525,0.195720737808339
0.396,0.195790842335924
0.39675,0.195790930944564
0.3975,0.195931023975541
0.39825,0.195931146503704
0.399,0.196001275949323
0.39975,0.196001412321939
0.4005,0.196071555610874
0.40125,0.196001736708776
0.402,0.196071895225789
0.40275,0.196002094600347
0.4035,0.196072303926654
0.40425,0.196002523239537
0.405,0.196002713607382
0.40575,0.195932951198138
0.4065,0.195933198746542
0.40725,0.195793456290678
0.408,0.195723723792708
0.40875,0.195724048461539
0.4095,0.195584337582635
0.41025,0.195444636676972
0.411,0.195304945744787
0.41175,0.195165264786312
0.4125,0.195025593801781
0.41325,0.1948159328149
0.414,0.194676281780351
0.41475,0.194536640720492
0.4155,0.194257009691022
0.41625,0.194047388613493
0.417,0.193837712019968
0.41775,0.1935581092696
0.4185,0.193348516467987
0.41925,0.193068863475895
0.42,0.192789289009805
0.42075,0.192509651273334
0.4215,0.192230095112376
0.42225,0.191880472674462
0.423,0.191600857132742
0.42375,0.191251248571992
0.4245,0.190971646905093
0.42525,0.190552052270725
0.426,0.190202381572691
0.42675,0.189782715369908
0.4275,0.189433138741333
0.42825,0.18901348254334
0.429,0.188523830848634
0.42975,0.188034095096605
0.4305,0.187614451137837
0.43125,0.187054721292633
0.432,0.186564993898619
0.43275,0.186005269073625
0.4335,0.185515454020559
0.43425,0.184955733382541
0.435,0.184325921250148
0.43575,0.183696110239506
0.4365,0.183066205443557
0.43725,0.182366396184083
0.438,0.181736492236838
0.43875,0.181036588639253
0.4395,0.180336589296035
0.44025,0.179566686053139
0.441,0.178796686779901
0.44175,0.178026591463764
0.4425,0.177186592252169
0.44325,0.176346497265777
0.444,0.175506402547562
0.44475,0.174596308162174
0.4455,0.173686119364007
0.44625,0.17270593171855
0.447,0.171725745161395
0.44775,0.170815559631083
0.4485,0.16969528316773
0.44925,0.168575009165283
0.45,0.167524737565813
0.45075,0.166334468544971
0.4515,0.165214201928037
0.45225,0.163953850086905
0.453,0.16276350258079
0.45375,0.161573159466855
0.4545,0.160172820898441
0.45525,0.158842486666557
0.456,0.15751207482243
0.45675,0.156041750567995
0.4575,0.154571351182671
0.45825,0.153030958713577
0.459,0.151560573073985
0.45975,0.149950119294953
0.4605,0.148339675428392
0.46125,0.146659313292132
0.462,0.144978887632592
0.46275,0.143158403497374
0.4635,0.141407999363312
0.46425,0.139517540346734
0.465,0.137627094844706
0.46575,0.135666662888025
0.4665,0.133706244451277
0.46725,0.13167583956216
0.468,0.129575393326973
0.46875,0.127405017472083
0.4695,0.125304604391945
0.47025,0.123064209041516
0.471,0.120963831357245
0.47175,0.11872351549056
0.4725,0.116483171033315
0.47325,0.114312884200166
0.474,0.112002572972785
0.47475,0.109692279472122
0.4755,0.10738203723938
0.47625,0.105001776997927
0.477,0.10269156386318
0.47775,0.100311336896855
0.4785,0.0979311276894179
0.47925,0.0954809592264361
0.48,0.0931007833326508
0.48075,0.0905806252238306
0.4815,0.0881305014745687
0.48225,0.0856803913439769
0.483,0.0832302821580533
0.48375,0.0807102012319177
0.4845,0.0783301427211758
0.48525,0.0758100871225853
0.486,0.0733600503290222
0.48675,0.0709800273291505
0.4875,0.0684600089250886
0.48825,0.0660100012552645
0.489,0.0636300005579704
0.48975,0.0612500050224229
0.4905,0.0589400139530072
0.49125,0.0567000235835857
0.492,0.0545300357286665
0.49275,0.0524300403391431
0.4935,0.0504700452295553
0.49425,0.0485100504002839
0.495,0.046690055850987
0.49575,0.0448700558567827
0.4965,0.043260050415373
0.49725,0.0416500452522978
0.498,0.0401100357580442
0.49875,0.038640027379544
0.4995,0.037310016903962
0.50025,0.0360500068458974
0.501,0.0348600012574929
0.50175,0.0337400005589256
0.5025,0.0326900068472075
0.50325,0.0317100236172058
0.504,0.0308700452801247
0.50475,0.0301000805015406
0.5055,0.0294001343143513
0.50625,0.0287701913454297
0.507,0.0282102706037851
0.50775,0.0276503635655595
0.5085,0.0273004702264379
0.50925,0.0269505905904827
0.51,0.0266707449247189
0.51075,0.02646089464727
0.5115,0.0263210580686374
0.51225,0.0262512351871774
0.513,0.0262514260009433
0.51375,0.026251630514153
0.5145,0.0263918487120407
0.51525,0.0264620806139904
0.516,0.0267423261854305
0.51675,0.0269525854582048
0.5175,0.0272328584120762
0.51825,0.0275831032490048
0.519,0.028003401597117
0.51975,0.0283536682171021
0.5205,0.028843944858426
0.52125,0.029334231547411
0.522,0.0298945282651353
0.52275,0.0303848350456964
0.5235,0.0310150983050606
0.52425,0.0315754234752086
0.525,0.0322057020672684
0.52575,0.0329059298908024
0.5265,0.0335362210194201
0.52725,0.0341665191134743
0.528,0.0348667625277393
0.52875,0.0355670103934769
0.5295,0.0363372626811609
0.53025,0.0370375194472322
0.531,0.0378777806010533
0.53175,0.0385779793516899
0.5325,0.0394182482829203
0.53325,0.0401884528302576
0.534,0.0410286598391923
0.53475,0.0417987991254781
0.5355,0.0426390102886154
0.53625,0.043409152339805
0.537,0.0442492954586149
0.53775,0.0450194397184978
0.5385,0.0459295119779829
0.53925,0.0467696578515547
0.54,0.0475397310078779
0.54075,0.0483097305808877
0.5415,0.0492198039286051
0.54225,0.0499898034984597
0.543,0.0508298030292564
0.54375,0.0515998025991926
0.5445,0.0524398021300709
0.54525,0.0532097278645843
0.546,0.0539796538847531
0.54675,0.0547495801905384
0.5475,0.0555195067819053
0.54825,0.0562193612690987
0.549,0.0569892887134837
0.54975,0.0576891448960393
0.5505,0.058459002170439
0.55125,0.0591588606089
0.552,0.059858720174828
0.55275,0.0604885118410048
0.5535,0.0611883742217145
0.55425,0.0618181701012976
0.555,0.062518035296078
0.55575,0.0630778354193978
0.5565,0.06377763800544
0.55725,0.0643374431772981
0.558,0.0649672508433707
0.55875,0.0655970610338213
0.5595,0.0660868738031711
0.56025,0.0666466281188655
0.561,0.0672064467433153
0.56175,0.0676962089227862
0.5625,0.0682559755543222
0.56325,0.0687456902079414
0.564,0.069305466910185
0.56475,0.0697951941449787
0.5655,0.0702149283866177
0.56625,0.0707046695942121
0.567,0.071194368289253
0.56775,0.071614124880503
0.5685,0.0720338420257954
0.56925,0.0724536139777576
0.57,0.0729433495387999
0.57075,0.0732931368625389
0.5715,0.0737828908519306
0.57225,0.074132654913584
0.573,0.0745524659548591
0.57375,0.0749022484365464
0.5745,0.075392074821547
0.57525,0.0757418757217759
0.576,0.0761617174655088
0.57675,0.0765115661925392
0.5775,0.0769314218893175
0.57825,0.077351284562191
0.579,0.0777011542152456
0.57975,0.0780510308424137
0.5805,0.0784709144396251
0.58125,0.0788208263381518
0.582,0.0792407224885561
0.58275,0.079590644429125
0.5835,0.0800805708278851
