Time,Force
0,-0.00740244832689474
0.00075,-0.00698194944908859
0.0015,-0.00656144359263228
0.00225,-0.0062111368348769
0.003,-0.00579072387093926
0.00375,-0.00537051594975579
0.0045,-0.0049502017484962
0.00525,-0.00460009669684708
0.006,-0.00410988552454361
0.00675,-0.00375977964408275
0.0075,-0.00326978021036289
0.00825,-0.00284978069571395
0.009,-0.00235988753626099
0.00975,-0.00193999401076561
0.0105,-0.00138010035934166
0.01125,-0.000890311487272422
0.012,-0.000400625785743625
0.01275,1.91659895049101e-05
0.0135,0.000578855846452564
0.01425,0.00106854831727343
0.015,0.00162814232149922
0.01575,0.00211784071002197
0.0165,0.00274744253027204
0.01725,0.00330704892649691
0.018,0.00386665982690881
0.01875,0.00435617997988691
0.0195,0.00498580094539736
0.02025,0.00554533368784027
0.021,0.00617496478599378
0.02175,0.00673451018207316
0.0225,0.0073640625480792
0.02325,0.00799362194309705
0.024,0.00855310264100739
0.02475,0.00918259339652838
0.0255,0.00981217667682555
0.02625,0.0104416052394335
0.027,0.011071126324626
0.02775,0.0117006575175344
0.0285,0.0123301234101914
0.02925,0.0129596030511053
0.03,0.0136590964024424
0.03075,0.0143585342598279
0.0315,0.0149880571012689
0.03225,0.0156175936847847
0.033,0.0163170808991686
0.03375,0.0169466469245172
0.0345,0.0176461677817913
0.03525,0.018345763219198
0.036,0.0190453177135219
0.03675,0.019744942584069
0.0375,0.0204445307075468
0.03825,0.021074185020733
0.039,0.021843806748762
0.03975,0.0224734904778784
0.0405,0.0231731458346279
0.04125,0.0238728589601467
0.042,0.0245725858093293
0.04275,0.0252722904524416
0.0435,0.0259020467107485
0.04425,0.0265318166858103
0.045,0.0272315705960818
0.04575,0.0277913699644411
0.0465,0.0284911574556246
0.04725,0.0290509628616242
0.048,0.0297508072676261
0.04875,0.0303106462407005
0.0495,0.0310105200185173
0.05025,0.0316404075032289
0.051,0.0322003219675776
0.05175,0.0327602349002643
0.0525,0.0333901711733992
0.05325,0.0339501175120288
0.054,0.0345100739142395
0.05475,0.0350700452692759
0.0555,0.0357000236118299
0.05625,0.0363300113165116
0.057,0.0368200034926541
0.05775,0.0373800001397001
0.0585,0.037940000558786
0.05925,0.0385000034923216
0.06,0.0390600089400428
0.06075,0.0395500139684318
0.0615,0.0401800169011962
0.06225,0.0407400201131791
0.063,0.0412300236043883
0.06375,0.041790023603635
0.0645,0.0422100201114961
0.06525,0.0427000168987662
0.066,0.0432600113120363
0.06675,0.0436800068429188
0.0675,0.0442400034911772
0.06825,0.0446600005585751
0.069,0.0452200005585601
0.06975,0.0457100034908814
0.0705,0.0461300113101837
0.07125,0.0465500273672009
0.072,0.0470400504045121
0.07275,0.0474600804218955
0.0735,0.0479501174182673
0.07425,0.0483701710272816
0.075,0.0488602346847594
0.07575,0.049280308391571
0.0765,0.0497003921463002
0.07725,0.0500505025626657
0.078,0.0505406266502217
0.07875,0.050890764417062
0.0795,0.0513109158546865
0.08025,0.0517310809646399
0.081,0.0521512597459117
0.08175,0.0525714521975346
0.0825,0.0529216888927075
0.08325,0.0533419106362809
0.084,0.053622146064326
0.08475,0.0539724318599738
0.0855,0.0543926965588853
0.08625,0.0546730158382636
0.087,0.0550933098203749
0.08775,0.0553736625712414
0.0885,0.0557939858327133
0.08925,0.0561443720339705
0.09,0.0564247246072258
0.09075,0.0567751442712283
0.0915,0.0571255817801808
0.09225,0.0574059792470522
0.093,0.0577564502131039
0.09375,0.0580368769546652
0.0945,0.0583873813741792
0.09525,0.0587378373560821
0.096,0.0589483070598534
0.09675,0.0592287903911098
0.0975,0.0595792873434203
0.09825,0.0598597979881432
0.099,0.0602103222484179
0.09975,0.0604207825353653
0.1005,0.0607713321511005
0.10125,0.0611218140812436
0.102,0.0614023060859237
0.10275,0.061752808068451
0.1035,0.062033234053509
0.10425,0.0623137544686814
0.105,0.0626641957135865
0.10575,0.0629445537187745
0.1065,0.0632950074864935
0.10725,0.0636453754481142
0.108,0.0639957478587477
0.10875,0.0643461247181065
0.1095,0.0646965060259458
0.11025,0.0649767949092367
0.111,0.0653970861577752
0.11175,0.0657472816416221
0.1125,0.0661675770499237
0.11325,0.0665177753048141
0.114,0.066867874669635
0.11475,0.0672879742377969
0.1155,0.0676380741521448
0.11625,0.0680581742690062
0.117,0.0684781738345219
0.11775,0.0688280729279173
0.1185,0.0692480724958733
0.11925,0.0695978718922352
0.12,0.0700877716931225
0.12075,0.0704375727783185
0.1215,0.0708572766157334
0.12225,0.0713469829094182
0.123,0.0716966918621736
0.12375,0.072046403336179
0.1245,0.0725360225352795
0.12525,0.0728856463416411
0.126,0.073375182349012
0.12675,0.073724725470124
0.1275,0.0741442755230626
0.12825,0.0746338325127005
0.129,0.0749833103135533
0.12975,0.0754027981210159
0.1305,0.0758222959894522
0.13125,0.0762418039181512
0.132,0.0767313218612975
0.13275,0.0770807723154099
0.1335,0.0775702363694164
0.13425,0.0779897141510522
0.135,0.0784092773948131
0.13575,0.0787587806249834
0.1365,0.0792482295944597
0.13725,0.0796677621051778
0.138,0.0800873082957126
0.13875,0.0805068681650928
0.1395,0.0809964416866871
0.14025,0.0813459711052816
0.141,0.0818355739353877
0.14175,0.082325190443383
0.1425,0.0827448206473153
0.14325,0.0830944147979784
0.144,0.0835840742807603
0.14475,0.0840037474518279
0.1455,0.0844934342789644
0.14625,0.0849131347897197
0.147,0.0854028489568587
0.14775,0.0858925767929108
0.1485,0.0863123543880018
0.14925,0.086732107614535
0.15,0.0872919069480388
0.15075,0.0877116855519366
0.1515,0.0882015066464353
0.15225,0.0886913377800813
0.153,0.0891811789520197
0.15375,0.0897410301573254
0.1545,0.0902309138282753
0.15525,0.0906507834417514
0.156,0.0912106824430947
0.15675,0.0917005884166883
0.1575,0.0921905013588348
0.15825,0.0926804367270878
0.159,0.0932403622101385
0.15975,0.0937303076124213
0.1605,0.0942902574727339
0.16125,0.0948502227924614
0.162,0.0953401804568688
0.16275,0.0958301516296717
0.1635,0.0963901338030126
0.16425,0.0968801091557187
0.165,0.0974400941159687
0.16575,0.0978600801915697
0.1665,0.0984200673810531
0.16725,0.0989800613927627
0.168,0.0994700556834965
0.16875,0.0999600502529535
0.1695,0.100450050251553
0.17025,0.100940050250161
0.171,0.101500050248556
0.17175,0.10192005024736
0.1725,0.102480055673974
0.17325,0.103040067363366
0.174,0.103460073624727
0.17475,0.104020086982972
0.1755,0.104440101454517
0.17625,0.104930125249008
0.177,0.105420142501569
0.17775,0.105840170469005
0.1785,0.10640021165315
0.17925,0.106820257289503
0.18,0.107310307375173
0.18075,0.107800361910625
0.1815,0.108290436339922
0.18225,0.108710500888474
0.183,0.109200606058188
0.18375,0.10962070134675
0.1845,0.110110824869892
0.18525,0.110530958406678
0.186,0.11095110195358
0.18675,0.111441255504904
0.1875,0.111861419069253
0.18825,0.112281622549646
0.189,0.11270183965254
0.18975,0.113122070376965
0.1905,0.113542314721932
0.19125,0.113962572686479
0.192,0.114382844269622
0.19275,0.114873129457957
0.1935,0.115223472099358
0.19425,0.115643786478538
0.195,0.115994114488688
0.19575,0.116414506025337
0.1965,0.11683486319265
0.19725,0.117185233992402
0.198,0.117605618383564
0.19875,0.117956016408373
0.1995,0.118376428019692
0.20025,0.118866853211649
0.201,0.119217292064934
0.20175,0.119567679035144
0.2025,0.119988143128814
0.20325,0.120338551756038
0.204,0.120759041113977
0.20475,0.121179471357757
0.2055,0.121599911591456
0.20625,0.122020361814366
0.207,0.12244074458757
0.20775,0.122791213164842
0.2085,0.123281611147227
0.20925,0.123632016153766
0.21,0.124122427996236
0.21075,0.124472846868359
0.2115,0.124963186801273
0.21225,0.125453531163387
0.213,0.125873880009464
0.21375,0.126364233230291
0.2145,0.126784590937171
0.21525,0.127204862036406
0.216,0.127695135564377
0.21675,0.128115411640011
0.2175,0.128675596825193
0.21825,0.129095783235736
0.219,0.129655970622342
0.21975,0.13014615917293
0.2205,0.130636253635322
0.22125,0.131126348370376
0.222,0.131686443312792
0.22275,0.132176442855826
0.2235,0.132736442333617
0.22425,0.13322644187671
0.225,0.133786345904275
0.22575,0.13434634538519
0.2265,0.134906154811259
0.22725,0.135396059754371
0.228,0.136025870804908
0.22875,0.136515683104758
0.2295,0.137145403749439
0.23025,0.13770521879193
0.231,0.138334943639098
0.23175,0.138824580977613
0.2325,0.139454311698535
0.23325,0.140083956744651
0.234,0.140713606260375
0.23475,0.141273260297847
0.2355,0.141902834175799
0.23625,0.142462415076873
0.237,0.143092002900173
0.23775,0.143651597741893
0.2385,0.144351120732666
0.23925,0.144980653800674
0.24,0.145540272332269
0.24075,0.146099750103417
0.2415,0.146799313218248
0.24225,0.147358886433971
0.243,0.147988401197454
0.24375,0.148547996127047
0.2445,0.14917753621964
0.24525,0.149807089948607
0.246,0.150366657338881
0.24675,0.150926238359276
0.2475,0.151555832985372
0.24825,0.152045441285274
0.249,0.152675063168186
0.24975,0.153234698697573
0.2505,0.153794347850549
0.25125,0.154354010625821
0.252,0.154913687022095
0.25275,0.155543377024683
0.2535,0.156033080672455
0.25425,0.156522797935045
0.255,0.15715252879127
0.25575,0.15764230894091
0.2565,0.158202065091455
0.25725,0.158691866910756
0.258,0.159251678723538
0.25875,0.159741500542979
0.2595,0.160231332360853
0.26025,0.160721199840622
0.261,0.161281049983318
0.26175,0.161700932741445
0.2625,0.162260822434366
0.26325,0.162680719075459
0.264,0.163170641379765
0.26475,0.163730568124622
0.2655,0.164150499316408
0.26625,0.164570434949728
0.267,0.165060389585426
0.26775,0.165480332991235
0.2685,0.16597030635453
0.26925,0.166390268487222
0.27,0.166810244628203
0.27075,0.167230221879713
0.2715,0.167720200240892
0.27225,0.168140179713316
0.273,0.168490169864543
0.27375,0.168910160292852
0.2745,0.169330150998931
0.27525,0.169680150995942
0.276,0.170100150992359
0.27675,0.170450150989362
0.2775,0.170870160275076
0.27825,0.171220160271904
0.279,0.171570169834936
0.27975,0.171850189796199
0.2805,0.172270200189334
0.28125,0.172550221812926
0.282,0.172900256327481
0.28275,0.173250280720863
0.2835,0.173600319391637
0.28425,0.1738803605575
0.285,0.174160404217229
0.28575,0.174440466311797
0.2865,0.174790532838003
0.28725,0.175000603801968
0.288,0.175350698738623
0.28875,0.17556077967825
0.2895,0.175840887086534
0.29025,0.176051025127193
0.291,0.176331147774983
0.29175,0.176611304098989
0.2925,0.176821441990077
0.29325,0.176961616612735
0.294,0.177241801197378
0.29475,0.177382029172196
0.2955,0.177662235366414
0.29625,0.177802451552058
0.297,0.178012716368885
0.29775,0.178222994761103
0.2985,0.178363286741225
0.29925,0.178503547811956
0.3,0.178713864990294
0.30075,0.178854195758841
0.3015,0.179064540085252
0.30225,0.179134898023148
0.303,0.179345269497397
0.30375,0.17955565454347
0.3045,0.179626053208819
0.30525,0.179836465400353
0.306,0.179906891216929
0.30675,0.18004733058144
0.3075,0.180187783519155
0.30825,0.180328250029753
0.309,0.180468660688833
0.30975,0.180539152441025
0.3105,0.180749584666932
0.31125,0.180890026899099
0.312,0.181030479101041
0.31275,0.181100941315844
0.3135,0.181311413413315
0.31425,0.181381814510428
0.315,0.181592304880238
0.31575,0.181662721209226
0.3165,0.181873059144495
0.31725,0.182013487880845
0.318,0.182153835831199
0.31875,0.182224188266025
0.3195,0.182434545016702
0.32025,0.182574815498451
0.321,0.182715180053655
0.32175,0.182855456345279
0.3225,0.183065641819581
0.32325,0.183275922195524
0.324,0.1834161104946
0.32475,0.18362620493037
0.3255,0.183766394886016
0.32625,0.183906490213065
0.327,0.184186585684398
0.32775,0.184326681561842
0.3285,0.184536681363754
0.32925,0.184746681165667
0.33,0.184956680967588
0.33075,0.185236584699682
0.3315,0.185446488777151
0.33225,0.185656393133956
0.333,0.185936297705585
0.33375,0.186146108007818
0.3345,0.186425919359737
0.33525,0.186705731825808
0.336,0.186985545405978
0.33675,0.187335267925466
0.3375,0.187615084289914
0.33825,0.187894811042383
0.339,0.18824445062313
0.33975,0.18852418321269
0.3405,0.188873830574968
0.34125,0.189223482383279
0.342,0.18964313858536
0.34275,0.190062799235619
0.3435,0.19041238142571
0.34425,0.190832052079969
0.345,0.191181646766843
0.34575,0.191531248393957
0.3465,0.192020856874999
0.34725,0.192440396318987
0.348,0.192930020075817
0.34875,0.193349577841392
0.3495,0.193839216871504
0.35025,0.194328792921195
0.351,0.194818378963373
0.35175,0.19523797502876
0.3525,0.195797581021886
0.35325,0.19628713404312
0.354,0.196846761683276
0.35475,0.197336399339874
0.3555,0.197895989232734
0.35625,0.19845564850504
0.357,0.198945317786595
0.35775,0.199434944590747
0.3585,0.199994635485062
0.35925,0.200554336364726
0.36,0.201114000031186
0.36075,0.201603722555761
0.3615,0.202233455033297
0.36225,0.202723197519643
0.363,0.203352949961208
0.36375,0.203912712394966
0.3645,0.204472522032391
0.36525,0.204962302769806
0.366,0.205592093465835
0.36675,0.206081926671414
0.3675,0.206711766790582
0.36825,0.207201613851922
0.369,0.207831467828013
0.36975,0.208391355992785
0.3705,0.208951248591772
0.37125,0.209441145629073
0.372,0.210071047090689
0.37275,0.210560952993557
0.3735,0.21119088531598
0.37425,0.211680820139575
0.375,0.212310778060553
0.37575,0.212870717037936
0.3765,0.213360677737018
0.37725,0.213850658493197
0.378,0.214480620850839
0.37875,0.214970602439624
0.3795,0.215530584303704
0.38025,0.216020566447759
0.381,0.216580566429858
0.38175,0.217070566414189
0.3825,0.217630566396288
0.38325,0.218120584218295
0.384,0.218610602315862
0.38475,0.219100620688962
0.3855,0.219590639337575
0.38625,0.22008067748
0.387,0.220570716726367
0.38775,0.22099075707958
0.3885,0.221480798533743
0.38925,0.221970862796272
0.39,0.222460929543618
0.39075,0.222810998783462
0.3915,0.223301094968172
0.39225,0.22372117000265
0.393,0.224211273918509
0.39375,0.22456141004623
0.3945,0.225051523902549
0.39525,0.225471672452051
0.396,0.2258918279053
0.39675,0.226241990269683
0.3975,0.226662159529638
0.39825,0.227012335701128
0.399,0.227432556219185
0.39975,0.227782747577316
0.4005,0.22820298631816
0.40125,0.228483235023237
0.402,0.228903493642802
0.40275,0.229253762214588
0.4035,0.229534040741174
0.40425,0.229814329208302
0.405,0.230164678310236
0.40575,0.230444988313183
0.4065,0.230795362538025
0.40725,0.231005694096993
0.408,0.231356035549002
0.40875,0.231636446512767
0.4095,0.231846809545811
0.41025,0.232057245661031
0.411,0.232337630199802
0.41175,0.232548091439088
0.4125,0.232828497507096
0.41325,0.232968983903965
0.414,0.233249411500985
0.41475,0.233459849070629
0.4155,0.23360029661772
0.41625,0.233810754062425
0.417,0.234021221443261
0.41775,0.234091698852244
0.4185,0.234302186108141
0.41925,0.234442599768964
0.42,0.234653020279254
0.42075,0.234723534134947
0.4215,0.234863969878653
0.42225,0.235074412465823
0.423,0.235144771582778
0.42375,0.235215226706439
0.4245,0.235355595702049
0.42525,0.235425969175369
0.426,0.235566252099194
0.42675,0.235636633301328
0.4275,0.235706922085175
0.42825,0.235847213285301
0.429,0.235847507105491
0.42975,0.235917704297119
0.4305,0.235987902592289
0.43125,0.235988102062428
0.432,0.236058302565424
0.43275,0.23605840326706
0.4335,0.236128504171929
0.43425,0.236198605352275
0.435,0.236128605425707
0.43575,0.23619870688192
0.4365,0.236128605425703
0.43725,0.236058605499134
0.438,0.23605850424496
0.43875,0.235988403339691
0.4395,0.235988302637663
0.44025,0.235918202283748
0.441,0.235848002331324
0.44175,0.235847803412161
0.4425,0.235707605737078
0.44325,0.235567311222378
0.444,0.235497019122413
0.44475,0.235356825857777
0.4455,0.235286442440106
0.44625,0.235076157919364
0.447,0.235005875753187
0.44775,0.234865503437007
0.4485,0.234655135595391
0.44925,0.23444477216583
0.45,0.23423441314848
0.45075,0.234023970540354
0.4515,0.233813621452102
0.45225,0.233533191310183
0.453,0.233322768012207
0.45375,0.233112351612163
0.4545,0.232831942157464
0.45525,0.232551539598021
0.456,0.232201143978152
0.45675,0.231850755251126
0.4575,0.231570373376408
0.45825,0.231149998477256
0.459,0.230869630393205
0.45975,0.230449197840423
0.4605,0.23009884496418
0.46125,0.229748498983285
0.462,0.229258159962589
0.46275,0.22876782783282
0.4635,0.228417502535302
0.46425,0.227927184191614
0.465,0.227436872740511
0.46575,0.226946568182578
0.4665,0.226526270493611
0.46725,0.226036037360412
0.468,0.225475752128632
0.46875,0.224915528941176
0.4695,0.224425310141934
0.47025,0.22386509577412
0.471,0.223374885797003
0.47175,0.222744680268914
0.4725,0.222254479114676
0.47325,0.221694331191922
0.474,0.221064185764918
0.47475,0.220504042800246
0.4755,0.219803902346098
0.47625,0.219173764354815
0.477,0.218543673781429
0.47775,0.217843584321993
0.4785,0.217213495947947
0.47925,0.216443408700854
0.48,0.215813322526292
0.48075,0.215113279922881
0.4815,0.214343237605511
0.48225,0.213503195573709
0.483,0.212733153802098
0.48375,0.211893153951672
0.4845,0.211123154088787
0.48525,0.210213154250852
0.486,0.20937315440047
0.48675,0.208533196470572
0.4875,0.207553196647471
0.48825,0.206573239026232
0.489,0.205663281673464
0.48975,0.204613367664938
0.4905,0.203633411167319
0.49125,0.202513498850948
0.492,0.201463587638739
0.49275,0.200273677573464
0.4935,0.199153768612779
0.49425,0.197963907161752
0.495,0.196704001027987
0.49575,0.195374143798145
0.4965,0.194114337943003
0.49725,0.192714486593064
0.498,0.191384688565227
0.49875,0.189914895038358
0.4995,0.188515105957878
0.50025,0.187045267203337
0.501,0.185435486009385
0.50175,0.1838257092887
0.5025,0.182215994543783
0.50325,0.180466227936414
0.504,0.178786525791294
0.50475,0.176966769287651
0.5055,0.175147017269758
0.50625,0.173327333368782
0.507,0.171367591502362
0.50775,0.16933785416137
0.5085,0.167308121318313
0.50925,0.16520839300799
0.51,0.163108669200894
0.51075,0.160868949969593
0.5115,0.158629235249266
0.51225,0.156319525079401
0.513,0.154009819426293
0.51375,0.151560043559889
0.5145,0.14911034590979
0.51525,0.146520576093748
0.516,0.144000886423122
0.51675,0.141341122630104
0.5175,0.138611361453597
0.51825,0.135881522694007
0.519,0.133081685142279
0.51975,0.130211848800912
0.5205,0.12727201367245
0.52125,0.124262097602838
0.522,0.12125218183997
0.52275,0.118102266481483
0.5235,0.115022351382355
0.52425,0.111942436591147
0.525,0.108862438766454
0.52575,0.105852607882984
0.5265,0.102772778221621
0.52725,0.0999031199663158
0.528,0.0969633798704
0.52875,0.094093642313603
0.5295,0.0913639072386851
0.53025,0.0886342637624921
0.531,0.0859746247968879
0.53175,0.0833149903992791
0.5325,0.0807953604494244
0.53325,0.0783458288031175
0.534,0.0758963042571459
0.53475,0.07351678674761
0.5355,0.0712072762715993
0.53625,0.0688976734683033
0.537,0.0667980750164038
0.53775,0.0646284811976622
0.5385,0.0625989946049843
0.53925,0.0607094107328193
0.54,0.0587497264269954
0.54075,0.0569300445436605
0.5415,0.0551803651571747
0.54225,0.0535006882644334
0.543,0.0518909056830669
0.54375,0.0503512329212369
0.5445,0.0488814530499382
0.54525,0.0474815643641563
0.546,0.0461516758889313
0.54675,0.0448917876229732
0.5475,0.0437018995649802
0.54825,0.042511901050542
0.549,0.0415319022740995
0.54975,0.0404817931007828
0.5505,0.0396416839341401
0.55125,0.0387316850592145
0.552,0.0380314663219838
0.55275,0.0373312486849031
0.5535,0.0367010320641542
0.55425,0.0360708165455331
0.555,0.035650494720747
0.55575,0.0351600694290771
0.5565,0.0348097533591729
0.55725,0.034529335619477
0.558,0.0343189222621354
0.55875,0.0341084117841611
0.5595,0.0339679082089128
0.56025,0.0338974115425883
0.561,0.0338969217912299
0.56175,0.0338964390263263
0.5625,0.0340358688038483
0.56325,0.0341053087119325
0.564,0.034314849528625
0.56475,0.0345943077220912
0.5655,0.0348037760477943
0.56625,0.0351532543402644
0.567,0.0354326585145881
0.56775,0.0357821586435092
0.5685,0.0362016688050204
0.56925,0.0366211101141173
0.57,0.0371106420755629
0.57075,0.0376001841215418
0.5715,0.0381596625928804
0.57225,0.0387192264486674
0.573,0.0392788003897143
0.57375,0.0398383161105537
0.5745,0.0404679118659784
0.57525,0.0410975177068107
0.576,0.0417271336319663
0.57675,0.0423567596403651
0.5775,0.0430564556179924
0.57825,0.0437561586024088
0.579,0.0444558685927904
0.57975,0.045085585610577
0.5805,0.045785364206416
0.58125,0.0464852010452488
0.582,0.0471849874930069
0.58275,0.0478848823013445
0.5835,0.0485847267179934
0.58425,0.0492146243557018
0.585,0.0499845734775473
